{
"AcquisitionMatrixPE": 96,
"AcquisitionNumber": 1,
"AcquisitionTime": "17:35:42.107500",
"BandwidthPerPixelPhaseEncode": 52.083,
"BaseResolution": 96,
"BodyPartExamined": "HEAD",
"ConversionSoftware": "dcm2niix",
"ConversionSoftwareVersion": "v1.0.20180622 GCC6.3.0",
"DerivedVendorReportedEchoSpacing": 0.000600004,
"DeviceSerialNumber": "18926",
"DwellTime": 2.6e-06,
"EchoTime": 0.025,
"EffectiveEchoSpacing": 0.000200001,
"FlipAngle": 50,
"ImageOrientationPatientDICOM": [
1,
-2.05103e-10,
0,
2.05103e-10,
1,
0
],
"ImageType": [
"ORIGINAL",
"PRIMARY",
"M",
"ND",
"ECHO",
"00",
"MOSAIC"
],
"InPlanePhaseEncodingDirectionDICOM": "ROW",
"InstitutionName": "NIMH",
"InstitutionalDepartmentName": "Department",
"MRAcquisitionType": "2D",
"MagneticFieldStrength": 6.98,
"Manufacturer": "Siemens",
"ManufacturersModelName": "Investigational_Device_7T",
"Modality": "MR",
"ParallelReductionFactorInPlane": 3,
"PartialFourier": 1,
"PatientPosition": "HFS",
"PercentPhaseFOV": 100,
"PhaseEncodingDirection": "i",
"PhaseEncodingSteps": 94,
"PhaseResolution": 1,
"PixelBandwidth": 2003,
"ProcedureStepDescription": "MRI_Procedure_Limited",
"ProtocolName": "NIH_EPI_2.0iso_TR2_Run11",
"PulseSequenceDetails": "%CustomerSeq%_inati_nih_epi",
"ReceiveCoilName": "32Ch_Head_7T",
"ReconMatrixPE": 96,
"RepetitionTime": 2,
"SAR": 0.0954305,
"ScanningSequence": "EP",
"SequenceName": "epfid2d1_96",
"SequenceVariant": "SK",
"SeriesDescription": "NIH_EPI_2.0iso_TR2_Run11",
"SeriesNumber": 16,
"ShimSetting": [
-35,
-33,
1383,
2505,
128,
80,
532,
-309
],
"SliceThickness": 2,
"SliceTiming": [
1.0025,
0,
1.04,
0.0375,
1.0775,
0.075,
1.115,
0.1125,
1.1525,
0.1475,
1.19,
0.185,
1.2275,
0.2225,
1.265,
0.26,
1.3,
0.2975,
1.3375,
0.335,
1.375,
0.3725,
1.4125,
0.4075,
1.45,
0.445,
1.4875,
0.4825,
1.525,
0.52,
1.56,
0.5575,
1.5975,
0.595,
1.635,
0.6325,
1.6725,
0.67,
1.71,
0.705,
1.7475,
0.7425,
1.785,
0.78,
1.8225,
0.8175,
1.8575,
0.855,
1.895,
0.8925,
1.9325,
0.93,
1.97,
0.9675
],
"SoftwareVersions": "syngo_MR_B17",
"SpacingBetweenSlices": 2,
"StationName": "FMRIFD7T",
"TaskName": "FullFovAttentionTask",
"TotalReadoutTime": 0.0190001,
"TxRefAmp": 302,
"dcmmeta_affine": [
[
-2.0,
4.1020681296188855e-10,
0.0,
95.98538208007812
],
[
4.1020681296188855e-10,
2.0,
0.0,
-68.37484741210938
],
[
0.0,
0.0,
1.9999998807907104,
-17.773967742919922
],
[
0.0,
0.0,
0.0,
1.0
]
],
"dcmmeta_reorient_transform": [
[
0.0,
-1.0,
0.0,
95.0
],
[
1.0,
0.0,
0.0,
0.0
],
[
0.0,
0.0,
1.0,
0.0
],
[
0.0,
0.0,
0.0,
1.0
]
],
"dcmmeta_shape": [
96,
96,
54,
164
],
"dcmmeta_slice_dim": 2,
"dcmmeta_version": 0.6,
"global": {
"const": {
"AcquisitionMatrix": [
0,
96,
96,
0
],
"Allergies": "No Known Allergies",
"AngioFlag": "N",
"BitsAllocated": 16,
"BitsStored": 12,
"BodyPartExamined": "HEAD",
"Columns": 768,
"EchoNumbers": 1,
"EchoTime": 25.0,
"EchoTrainLength": 1,
"FlipAngle": 50.0,
"HighBit": 11,
"ImageOrientationPatient": [
1.0,
-2.051034e-10,
0.0,
2.051034e-10,
1.0,
0.0
],
"ImagePositionPatient": [
-767.98537955166,
-793.62515624507,
-17.77396774292
],
"ImageType": [
"ORIGINAL",
"PRIMARY",
"M",
"ND",
"ECHO_00",
"MOSAIC"
],
"ImagedNucleus": "1H",
"ImagingFrequency": 297.204934,
"InPlanePhaseEncodingDirection": "ROW",
"LargestImagePixelValue": 4095,
"MRAcquisitionType": "2D",
"MagneticFieldStrength": 6.98,
"Manufacturer": "SIEMENS",
"ManufacturerModelName": "Investigational_Device_7T",
"Modality": "MR",
"NumberOfAverages": 1.0,
"NumberOfPhaseEncodingSteps": 94,
"PercentPhaseFieldOfView": 100.0,
"PercentSampling": 100.0,
"PerformedProcedureStepStartTime": "155403.794000",
"PhotometricInterpretation": "MONOCHROME2",
"PixelBandwidth": 2003.0,
"PixelRepresentation": 0,
"PixelSpacing": [
2.0,
2.0
],
"PositionReferenceIndicator": "",
"ProcedureCodeSequence": [
{
"CodeMeaning": "MRI Procedure Limited",
"CodeValue": "MI01491",
"CodingSchemeDesignator": "USA Standard",
"ContextIdentifier": "4000131003"
}
],
"ProtocolName": "NIH_EPI_2.0iso_TR2_Run11",
"ReferencedStudySequence": [
{
"ReferencedSOPClassUID": "1.2.840.10008.3.1.2.3.1",
"ReferencedSOPInstanceUID": "1.2.840.113564.9.1.2787814059.53.2.5000096846"
}
],
"RepetitionTime": 2000.0,
"RequestedProcedureCodeSequence": [
{
"CodeMeaning": "MRI Procedure Limited",
"CodeValue": "MI01491",
"CodingSchemeDesignator": "USA Standard",
"ContextIdentifier": "4000131003"
}
],
"RequestingService": "NIMH Molecular Imaging Branch",
"Rows": 768,
"SAR": 0.0954305326624,
"SamplesPerPixel": 1,
"ScanningSequence": "EP",
"SequenceName": "epfid2d1_96",
"SequenceVariant": "SK",
"SeriesDescription": "NIH_EPI_2.0iso_TR2_Run11",
"SeriesNumber": 16,
"SliceLocation": -17.77396774292,
"SliceThickness": 2.0,
"SmallestImagePixelValue": 0,
"SoftwareVersions": "syngo MR B17",
"SpacingBetweenSlices": 1.9999999280246,
"TransmitCoilName": "32Ch_Head_7T",
"VariableFlipAngleFlag": "N",
"WindowCenterWidthExplanation": "Algo1",
"dBdt": 0.0
},
"slices": {}
},
"time": {
"samples": {
"AcquisitionNumber": [
1,
2,
3,
4,
5,
6,
7,
8,
9,
10,
11,
12,
13,
14,
15,
16,
17,
18,
19,
20,
21,
22,
23,
24,
25,
26,
27,
28,
29,
30,
31,
32,
33,
34,
35,
36,
37,
38,
39,
40,
41,
42,
43,
44,
45,
46,
47,
48,
49,
50,
51,
52,
53,
54,
55,
56,
57,
58,
59,
60,
61,
62,
63,
64,
65,
66,
67,
68,
69,
70,
71,
72,
73,
74,
75,
76,
77,
78,
79,
80,
81,
82,
83,
84,
85,
86,
87,
88,
89,
90,
91,
92,
93,
94,
95,
96,
97,
98,
99,
100,
101,
102,
103,
104,
105,
106,
107,
108,
109,
110,
111,
112,
113,
114,
115,
116,
117,
118,
119,
120,
121,
122,
123,
124,
125,
126,
127,
128,
129,
130,
131,
132,
133,
134,
135,
136,
137,
138,
139,
140,
141,
142,
143,
144,
145,
146,
147,
148,
149,
150,
151,
152,
153,
154,
155,
156,
157,
158,
159,
160,
161,
162,
163,
164
],
"AcquisitionTime": [
"173542.107500",
"173546.125000",
"173548.132500",
"173550.140000",
"173552.147500",
"173554.157500",
"173556.165000",
"173558.172500",
"173600.180000",
"173602.190000",
"173604.197500",
"173606.205000",
"173608.212500",
"173610.220000",
"173612.230000",
"173614.237500",
"173616.245000",
"173618.252500",
"173620.260000",
"173622.270000",
"173624.277500",
"173626.285000",
"173628.292500",
"173630.302500",
"173632.310000",
"173634.317500",
"173636.325000",
"173638.332500",
"173640.342500",
"173642.350000",
"173644.357500",
"173646.365000",
"173648.372500",
"173650.382500",
"173652.390000",
"173654.397500",
"173656.405000",
"173658.415000",
"173700.422500",
"173702.430000",
"173704.437500",
"173706.445000",
"173708.455000",
"173710.462500",
"173712.470000",
"173714.477500",
"173716.485000",
"173718.495000",
"173720.502500",
"173722.510000",
"173724.517500",
"173726.525000",
"173728.535000",
"173730.542500",
"173732.550000",
"173734.557500",
"173736.567500",
"173738.575000",
"173740.582500",
"173742.590000",
"173744.597500",
"173746.607500",
"173748.615000",
"173750.622500",
"173752.630000",
"173754.637500",
"173756.647500",
"173758.655000",
"173800.662500",
"173802.670000",
"173804.680000",
"173806.687500",
"173808.695000",
"173810.702500",
"173812.710000",
"173814.720000",
"173816.727500",
"173818.735000",
"173820.742500",
"173822.750000",
"173824.760000",
"173826.767500",
"173828.775000",
"173830.782500",
"173832.792500",
"173834.800000",
"173836.807500",
"173838.815000",
"173840.822500",
"173842.832500",
"173844.840000",
"173846.847500",
"173848.855000",
"173850.862500",
"173852.872500",
"173854.880000",
"173856.887500",
"173858.895000",
"173900.902500",
"173902.912500",
"173904.920000",
"173906.927500",
"173908.935000",
"173910.945000",
"173912.952500",
"173914.960000",
"173916.967500",
"173918.975000",
"173920.985000",
"173922.992500",
"173925.000000",
"173927.007500",
"173929.015000",
"173931.025000",
"173933.032500",
"173935.040000",
"173937.047500",
"173939.057500",
"173941.065000",
"173943.072500",
"173945.080000",
"173947.087500",
"173949.097500",
"173951.105000",
"173953.112500",
"173955.120000",
"173957.127500",
"173959.137500",
"174001.145000",
"174003.152500",
"174005.160000",
"174007.170000",
"174009.177500",
"174011.185000",
"174013.192500",
"174015.200000",
"174017.210000",
"174019.217500",
"174021.225000",
"174023.232500",
"174025.240000",
"174027.250000",
"174029.257500",
"174031.265000",
"174033.272500",
"174035.280000",
"174037.290000",
"174039.297500",
"174041.305000",
"174043.312500",
"174045.322500",
"174047.330000",
"174049.337500",
"174051.345000",
"174053.352500",
"174055.362500",
"174057.370000",
"174059.377500",
"174101.385000",
"174103.392500",
"174105.402500",
"174107.410000",
"174109.417500",
"174111.425000"
],
"ContentTime": [
"173637.591000",
"173637.591000",
"173637.591000",
"173637.591000",
"173637.606000",
"173637.606000",
"173637.606000",
"173637.622000",
"173637.622000",
"173637.622000",
"173637.622000",
"173637.622000",
"173637.622000",
"173637.638000",
"173637.638000",
"173637.653000",
"173637.653000",
"173637.653000",
"173637.653000",
"173637.653000",
"173637.653000",
"173637.669000",
"173637.669000",
"173637.669000",
"173637.669000",
"173637.669000",
"173717.575000",
"173717.575000",
"173717.575000",
"173717.591000",
"173717.591000",
"173717.591000",
"173717.591000",
"173717.591000",
"173717.591000",
"173717.606000",
"173717.606000",
"173717.606000",
"173717.622000",
"173717.622000",
"173717.622000",
"173717.622000",
"173717.638000",
"173717.638000",
"173717.638000",
"173717.638000",
"173757.575000",
"173757.575000",
"173757.575000",
"173757.591000",
"173757.591000",
"173757.606000",
"173757.606000",
"173757.606000",
"173757.606000",
"173757.606000",
"173757.606000",
"173757.606000",
"173757.622000",
"173757.622000",
"173757.622000",
"173757.622000",
"173757.638000",
"173757.638000",
"173757.638000",
"173757.638000",
"173837.575000",
"173837.575000",
"173837.575000",
"173837.591000",
"173837.591000",
"173837.606000",
"173837.606000",
"173837.606000",
"173837.622000",
"173837.622000",
"173837.622000",
"173837.622000",
"173837.622000",
"173837.622000",
"173837.622000",
"173837.638000",
"173837.638000",
"173837.638000",
"173837.638000",
"173837.638000",
"173917.575000",
"173917.575000",
"173917.575000",
"173917.591000",
"173917.591000",
"173917.591000",
"173917.606000",
"173917.606000",
"173917.622000",
"173917.622000",
"173917.622000",
"173917.622000",
"173917.622000",
"173917.638000",
"173917.638000",
"173917.638000",
"173917.653000",
"173917.653000",
"173917.653000",
"173917.653000",
"173957.575000",
"173957.575000",
"173957.591000",
"173957.591000",
"173957.591000",
"173957.591000",
"173957.591000",
"173957.591000",
"173957.606000",
"173957.606000",
"173957.606000",
"173957.606000",
"173957.622000",
"173957.622000",
"173957.622000",
"173957.622000",
"173957.622000",
"173957.638000",
"173957.638000",
"173957.638000",
"174037.575000",
"174037.575000",
"174037.575000",
"174037.591000",
"174037.591000",
"174037.591000",
"174037.591000",
"174037.591000",
"174037.591000",
"174037.622000",
"174037.622000",
"174037.622000",
"174037.622000",
"174037.622000",
"174037.622000",
"174037.638000",
"174037.638000",
"174037.653000",
"174037.653000",
"174037.653000",
"174112.622000",
"174112.622000",
"174112.622000",
"174112.622000",
"174112.622000",
"174112.622000",
"174112.638000",
"174112.638000",
"174112.638000",
"174112.653000",
"174112.653000",
"174112.653000",
"174112.669000",
"174112.669000",
"174112.669000",
"174112.669000",
"174112.669000",
"174112.669000"
],
"InstanceCreationTime": [
"173637.591000",
"173637.591000",
"173637.591000",
"173637.591000",
"173637.606000",
"173637.606000",
"173637.606000",
"173637.622000",
"173637.622000",
"173637.622000",
"173637.622000",
"173637.622000",
"173637.622000",
"173637.638000",
"173637.638000",
"173637.653000",
"173637.653000",
"173637.653000",
"173637.653000",
"173637.653000",
"173637.653000",
"173637.669000",
"173637.669000",
"173637.669000",
"173637.669000",
"173637.669000",
"173717.575000",
"173717.575000",
"173717.575000",
"173717.591000",
"173717.591000",
"173717.591000",
"173717.591000",
"173717.591000",
"173717.591000",
"173717.606000",
"173717.606000",
"173717.606000",
"173717.622000",
"173717.622000",
"173717.622000",
"173717.622000",
"173717.638000",
"173717.638000",
"173717.638000",
"173717.638000",
"173757.575000",
"173757.575000",
"173757.575000",
"173757.591000",
"173757.591000",
"173757.606000",
"173757.606000",
"173757.606000",
"173757.606000",
"173757.606000",
"173757.606000",
"173757.606000",
"173757.622000",
"173757.622000",
"173757.622000",
"173757.622000",
"173757.638000",
"173757.638000",
"173757.638000",
"173757.638000",
"173837.575000",
"173837.575000",
"173837.575000",
"173837.591000",
"173837.591000",
"173837.606000",
"173837.606000",
"173837.606000",
"173837.622000",
"173837.622000",
"173837.622000",
"173837.622000",
"173837.622000",
"173837.622000",
"173837.622000",
"173837.638000",
"173837.638000",
"173837.638000",
"173837.638000",
"173837.638000",
"173917.575000",
"173917.575000",
"173917.575000",
"173917.591000",
"173917.591000",
"173917.591000",
"173917.606000",
"173917.606000",
"173917.622000",
"173917.622000",
"173917.622000",
"173917.622000",
"173917.622000",
"173917.638000",
"173917.638000",
"173917.638000",
"173917.653000",
"173917.653000",
"173917.653000",
"173917.653000",
"173957.575000",
"173957.575000",
"173957.591000",
"173957.591000",
"173957.591000",
"173957.591000",
"173957.591000",
"173957.591000",
"173957.606000",
"173957.606000",
"173957.606000",
"173957.606000",
"173957.622000",
"173957.622000",
"173957.622000",
"173957.622000",
"173957.622000",
"173957.638000",
"173957.638000",
"173957.638000",
"174037.575000",
"174037.575000",
"174037.575000",
"174037.591000",
"174037.591000",
"174037.591000",
"174037.591000",
"174037.591000",
"174037.591000",
"174037.622000",
"174037.622000",
"174037.622000",
"174037.622000",
"174037.622000",
"174037.622000",
"174037.638000",
"174037.638000",
"174037.653000",
"174037.653000",
"174037.653000",
"174112.622000",
"174112.622000",
"174112.622000",
"174112.622000",
"174112.622000",
"174112.622000",
"174112.638000",
"174112.638000",
"174112.638000",
"174112.653000",
"174112.653000",
"174112.653000",
"174112.669000",
"174112.669000",
"174112.669000",
"174112.669000",
"174112.669000",
"174112.669000"
],
"InstanceNumber": [
1,
2,
3,
4,
5,
6,
7,
8,
9,
10,
11,
12,
13,
14,
15,
16,
17,
18,
19,
20,
21,
22,
23,
24,
25,
26,
27,
28,
29,
30,
31,
32,
33,
34,
35,
36,
37,
38,
39,
40,
41,
42,
43,
44,
45,
46,
47,
48,
49,
50,
51,
52,
53,
54,
55,
56,
57,
58,
59,
60,
61,
62,
63,
64,
65,
66,
67,
68,
69,
70,
71,
72,
73,
74,
75,
76,
77,
78,
79,
80,
81,
82,
83,
84,
85,
86,
87,
88,
89,
90,
91,
92,
93,
94,
95,
96,
97,
98,
99,
100,
101,
102,
103,
104,
105,
106,
107,
108,
109,
110,
111,
112,
113,
114,
115,
116,
117,
118,
119,
120,
121,
122,
123,
124,
125,
126,
127,
128,
129,
130,
131,
132,
133,
134,
135,
136,
137,
138,
139,
140,
141,
142,
143,
144,
145,
146,
147,
148,
149,
150,
151,
152,
153,
154,
155,
156,
157,
158,
159,
160,
161,
162,
163,
164
],
"WindowCenter": [
983.0,
983.0,
983.0,
982.0,
982.0,
982.0,
982.0,
982.0,
983.0,
983.0,
982.0,
982.0,
982.0,
983.0,
983.0,
984.0,
984.0,
984.0,
984.0,
984.0,
983.0,
983.0,
984.0,
985.0,
985.0,
986.0,
985.0,
984.0,
984.0,
984.0,
984.0,
983.0,
983.0,
982.0,
982.0,
983.0,
983.0,
982.0,
982.0,
983.0,
982.0,
982.0,
982.0,
984.0,
983.0,
984.0,
983.0,
984.0,
984.0,
983.0,
984.0,
984.0,
985.0,
985.0,
984.0,
984.0,
984.0,
984.0,
984.0,
985.0,
984.0,
983.0,
983.0,
983.0,
982.0,
983.0,
983.0,
983.0,
984.0,
984.0,
983.0,
982.0,
982.0,
983.0,
983.0,
983.0,
982.0,
982.0,
984.0,
983.0,
982.0,
984.0,
985.0,
984.0,
983.0,
983.0,
983.0,
984.0,
984.0,
984.0,
983.0,
983.0,
983.0,
983.0,
982.0,
983.0,
983.0,
982.0,
984.0,
983.0,
982.0,
982.0,
983.0,
983.0,
983.0,
983.0,
983.0,
984.0,
984.0,
983.0,
982.0,
982.0,
983.0,
982.0,
982.0,
982.0,
981.0,
982.0,
982.0,
982.0,
981.0,
981.0,
981.0,
981.0,
981.0,
981.0,
981.0,
982.0,
982.0,
982.0,
982.0,
982.0,
983.0,
982.0,
981.0,
982.0,
983.0,
983.0,
982.0,
982.0,
983.0,
982.0,
982.0,
982.0,
982.0,
983.0,
982.0,
981.0,
981.0,
981.0,
982.0,
981.0,
981.0,
981.0,
981.0,
981.0,
982.0,
982.0,
982.0,
980.0,
981.0,
982.0,
982.0,
983.0
],
"WindowWidth": [
2617.0,
2621.0,
2620.0,
2614.0,
2613.0,
2616.0,
2617.0,
2616.0,
2616.0,
2619.0,
2622.0,
2622.0,
2620.0,
2618.0,
2622.0,
2628.0,
2629.0,
2626.0,
2625.0,
2626.0,
2623.0,
2618.0,
2621.0,
2624.0,
2625.0,
2627.0,
2626.0,
2622.0,
2618.0,
2618.0,
2620.0,
2619.0,
2616.0,
2614.0,
2615.0,
2617.0,
2618.0,
2615.0,
2616.0,
2619.0,
2623.0,
2620.0,
2621.0,
2622.0,
2623.0,
2621.0,
2621.0,
2621.0,
2619.0,
2618.0,
2620.0,
2623.0,
2622.0,
2621.0,
2623.0,
2622.0,
2619.0,
2620.0,
2622.0,
2622.0,
2620.0,
2617.0,
2617.0,
2619.0,
2618.0,
2618.0,
2621.0,
2625.0,
2626.0,
2625.0,
2627.0,
2624.0,
2621.0,
2624.0,
2623.0,
2619.0,
2617.0,
2619.0,
2622.0,
2618.0,
2618.0,
2626.0,
2626.0,
2620.0,
2615.0,
2615.0,
2619.0,
2620.0,
2618.0,
2617.0,
2619.0,
2618.0,
2616.0,
2613.0,
2614.0,
2617.0,
2619.0,
2622.0,
2627.0,
2624.0,
2617.0,
2617.0,
2625.0,
2629.0,
2622.0,
2619.0,
2621.0,
2625.0,
2624.0,
2617.0,
2612.0,
2612.0,
2614.0,
2615.0,
2613.0,
2610.0,
2610.0,
2612.0,
2613.0,
2612.0,
2608.0,
2607.0,
2610.0,
2612.0,
2611.0,
2613.0,
2619.0,
2621.0,
2618.0,
2615.0,
2616.0,
2622.0,
2623.0,
2620.0,
2620.0,
2626.0,
2627.0,
2620.0,
2611.0,
2615.0,
2621.0,
2617.0,
2614.0,
2618.0,
2619.0,
2616.0,
2614.0,
2612.0,
2611.0,
2611.0,
2612.0,
2613.0,
2616.0,
2616.0,
2618.0,
2622.0,
2627.0,
2624.0,
2617.0,
2613.0,
2613.0,
2619.0,
2627.0,
2626.0
]
},
"slices": {}
}
}